#Wave		#Intensity
3399.408203	1016.205444
3398.738281	1008.868225
3398.067383	1016.025818
3397.396484	979.173096
3396.725586	953.333374
3396.054688	1041.149292
3395.383789	920.008057
3394.711914	1051.775391
3394.041016	927.010925
3393.369141	1062.393799
3392.697266	1032.903809
3392.026367	1036.383301
3391.354492	1039.861450
3390.681641	999.408386
3390.009766	1017.532593
3389.337891	1024.671753
3388.665039	1050.102783
3387.993164	1115.765503
3387.320312	1031.443359
3386.647461	1009.319153
3385.974609	1042.047363
3385.301758	1089.386597
3384.628906	1019.748657
3383.956055	983.024536
3383.282227	1099.769653
3382.609375	1077.656616
3381.935547	1048.246460
3381.261719	1077.275269
3380.587891	1084.386841
3379.914062	1054.991089
3379.240234	1135.100830
3378.566406	1098.407959
3377.891602	1149.293213
3377.217773	1222.047852
3376.542969	1199.947998
3375.868164	1137.743164
3375.193359	1188.585205
3374.518555	1108.177734
3373.843750	1104.336792
3373.168945	1158.801758
3372.494141	1198.673828
3371.818359	1209.389771
3371.142578	1143.617798
3370.467773	1245.375854
3369.791992	1277.922607
3369.116211	1204.892944
3368.440430	1222.877197
3367.763672	1251.771484
3367.087891	1200.614502
3366.411133	1247.690430
3365.735352	1178.367554
3365.058594	1247.248291
3364.381836	1330.647217
3363.705078	1283.156372
3363.028320	1279.294556
3362.351562	1268.166748
3361.673828	1315.171875
3360.997070	1307.673950
3360.319336	1321.969360
3359.642578	1278.161255
3358.964844	1281.565186
3358.287109	1248.669312
3357.609375	1342.807373
3356.930664	1335.312256
3356.252930	1302.424194
3355.575195	1334.838745
3354.896484	1265.695923
3354.217773	1345.243286
3353.539062	1377.632935
3352.861328	1330.267334
3352.181641	1380.768311
3351.502930	1405.887329
3350.824219	1318.691284
3350.144531	1492.319946
3349.465820	1452.218750
3348.786133	1401.269165
3348.106445	1361.198364
3347.426758	1397.152466
3346.747070	1302.812500
3346.067383	1436.457764
3345.387695	1374.703003
3344.707031	1363.608032
3344.027344	1464.624023
3343.346680	1489.674072
3342.666016	1500.254883
3341.985352	1597.578125
3341.304688	1459.970581
3340.624023	1582.558472
3339.943359	1502.802368
3339.261719	1488.088135
3338.581055	1545.603394
3337.899414	1502.002075
3337.217773	1581.154053
3336.536133	1476.203491
3335.854492	1544.505859
3335.172852	1605.567871
3334.491211	1634.141724
3333.808594	1633.851562
3333.126953	1514.560181
3332.444336	1525.107422
3331.761719	1625.771362
3331.079102	1593.044922
3330.396484	1617.986694
3329.713867	1704.168701
3329.031250	1642.627563
3328.347656	1642.335693
3327.665039	1663.649658
3326.981445	1706.557983
3326.297852	1583.865112
3325.615234	1698.753418
3324.931641	1586.900635
3324.247070	1626.194092
3323.563477	1748.207642
3322.879883	1693.949341
3322.195312	1776.352905
3321.510742	1650.204590
3320.827148	1743.370117
3320.142578	1674.775391
3319.458008	1767.903320
3318.773438	1746.032959
3318.087891	1770.866699
3317.403320	1792.099976
3316.717773	1712.784912
3316.033203	1784.282349
3315.347656	1805.501831
3314.662109	1873.368408
3313.976562	1826.388672
3313.291016	1818.888672
3312.604492	1807.804321
3311.918945	1811.068970
3311.233398	1914.730225
3310.546875	1770.989502
3309.860352	1802.933594
3309.173828	1845.617432
3308.487305	1795.125854
3307.800781	1830.630859
3307.114258	1876.868530
3306.426758	1808.492188
3305.740234	1833.234009
3305.052734	1875.866455
3304.365234	1839.739868
3303.677734	1864.462646
3302.990234	1856.974731
3302.302734	1878.108276
3301.615234	1960.038208
3300.926758	2013.330322
3300.239258	1852.077026
3299.550781	1955.416504
3298.862305	1919.326538
3298.174805	1758.175903
3297.485352	1936.507324
3296.796875	1871.861816
3296.108398	1932.245850
3295.419922	1871.194946
3294.730469	2006.534790
3294.041016	2027.595459
3293.352539	1920.161987
3292.663086	2026.873047
3291.973633	1905.206543
3291.283203	1929.837158
3290.593750	1879.561890
3289.904297	2053.955811
3289.213867	2010.806519
3288.523438	2060.352783
3287.833984	1945.937988
3287.143555	1970.534546
3286.453125	2002.247681
3285.762695	1987.642456
3285.071289	2022.902588
3284.380859	2008.298584
3283.689453	1975.898926
3282.999023	2000.463379
3282.307617	2092.638184
3281.616211	1949.934082
3280.924805	2049.200195
3280.233398	1995.479614
3279.541016	1998.680054
3278.849609	1944.987549
3278.157227	1983.746704
3277.465820	1976.283936
3276.773438	2036.346436
3276.081055	2082.174805
3275.388672	1943.253174
3274.695312	1950.010254
3274.002930	2038.444824
3273.310547	1999.023682
3272.617188	2101.617920
3271.923828	2065.748779
3271.231445	2054.733887
3270.538086	2111.137207
3269.843750	1933.385498
3269.150391	1968.508911
3268.457031	2031.989624
3267.762695	2059.991699
3267.069336	1981.634644
3266.375000	2013.179810
3265.680664	2065.975830
3264.986328	2047.891602
3264.291992	2058.153076
3263.597656	2008.200439
3262.903320	1986.594727
3262.208008	2067.672119
3261.513672	2017.744263
3260.818359	1928.902100
3260.123047	2066.564453
3259.427734	1995.435059
3258.732422	1963.242188
3258.037109	1938.134277
3257.340820	1994.365723
3256.645508	2029.364136
3255.949219	2018.396973
3255.252930	1904.941406
3254.556641	1840.996460
3253.860352	1946.656006
3253.164062	1971.034302
3252.467773	1949.491821
3251.771484	1871.460083
3251.074219	2019.403442
3250.376953	1902.559204
3249.680664	1856.339966
3248.983398	1933.635742
3248.286133	1954.457397
3247.588867	1880.035278
3246.890625	1847.959229
3246.193359	1875.836914
3245.495117	1815.569946
3244.797852	1931.561890
3244.099609	2005.222900
3243.401367	1811.072388
3242.703125	1842.454224
3242.004883	1937.224731
3241.305664	1859.402954
3240.607422	1922.447754
3239.908203	1816.493652
3239.209961	1883.043091
3238.510742	1914.377808
3237.811523	1906.998291
3237.112305	1843.336304
3236.413086	1744.525146
3235.712891	1895.424927
3235.013672	1817.735229
3234.313477	1775.226318
3233.613281	1704.615112
3232.914062	1837.843506
3232.213867	1640.763428
3231.512695	1763.417114
3230.812500	1724.467651
3230.112305	1657.439941
3229.411133	1762.469971
3228.710938	1730.562012
3228.009766	1621.453247
3227.308594	1754.505249
3226.607422	1691.040161
3225.906250	1624.089844
3225.205078	1753.562622
3224.502930	1609.482056
3223.801758	1651.264160
3223.099609	1759.630859
3222.397461	1780.343262
3221.696289	1653.880859
3220.993164	1636.067627
3220.291016	1565.719849
3219.588867	1610.966675
3218.886719	1610.677979
3218.183594	1599.886719
3217.480469	1536.596069
3216.778320	1532.821045
3216.075195	1560.537964
3215.372070	1595.241577
3214.667969	1472.535767
3213.964844	1535.219238
3213.261719	1510.468750
3212.557617	1510.197998
3211.853516	1534.393555
3211.149414	1415.302856
3210.445312	1453.482544
3209.741211	1533.568237
3209.037109	1397.078003
3208.333008	1414.287842
3207.627930	1487.354370
3206.923828	1417.271240
3206.218750	1444.938599
3205.513672	1367.908936
3204.808594	1392.086060
3204.103516	1377.883057
3203.398438	1381.123535
3202.692383	1321.595703
3201.987305	1307.412720
3201.281250	1331.578735
3200.575195	1401.043457
3199.869141	1362.461914
3199.163086	1390.088745
3198.457031	1355.006226
3197.750977	1340.832275
3197.043945	1323.181274
3196.337891	1176.723633
3195.630859	1378.399048
3194.923828	1308.547974
3194.216797	1290.915161
3193.509766	1297.641235
3192.802734	1276.538330
3192.095703	1279.786865
3191.387695	1338.666870
3190.680664	1188.939941
3189.972656	1237.387695
3189.264648	1195.463135
3188.556641	1271.688721
3187.848633	1201.981567
3187.140625	1267.758545
3186.431641	1191.131592
3185.723633	1239.526489
3185.014648	1173.346436
3184.305664	1301.555664
3183.596680	1152.103638
3182.887695	1179.653076
3182.178711	1200.254761
3181.469727	1165.355713
3180.759766	1172.081665
3180.050781	1147.601440
3179.340820	1192.458984
3178.630859	1171.449707
3177.920898	1219.751953
3177.210938	1191.815918
3176.500977	1153.498169
3175.791016	1160.217407
3175.080078	1194.635864
3174.370117	1076.709961
3173.659180	1086.900757
3172.948242	1159.382935
3172.237305	1166.094849
3171.526367	1107.071899
3170.815430	1148.380493
3170.103516	1079.006836
3169.392578	1134.136353
3168.680664	1120.103882
3167.968750	1154.467285
3167.256836	1157.715332
3166.544922	1122.954590
3165.833008	1098.570190
3165.121094	1115.642456
3164.408203	1032.560547
3163.696289	1056.543945
3162.983398	1094.327271
3162.270508	1018.196960
3161.557617	1090.482422
3160.844727	1110.987793
3160.131836	1096.989136
3159.418945	1076.097412
3158.705078	1072.455200
3157.992188	1106.739990
3157.278320	975.548340
3156.564453	999.498474
3155.850586	1071.682861
3155.136719	1071.489868
3154.421875	1054.073486
3153.708008	1022.887024
3152.993164	1095.015015
3152.279297	1036.289795
3151.564453	1104.947144
3150.849609	1032.474854
3150.134766	1025.406860
3149.419922	1025.222168
3148.704102	1090.392090
3147.989258	1090.195557
3147.273438	1021.229431
3146.558594	1024.483276
3145.842773	1110.229736
3145.126953	996.620972
3144.411133	1065.161377
3143.694336	1044.357056
3142.978516	954.864868
3142.261719	1013.073181
3141.545898	1064.393433
3140.829102	1067.634399
3140.112305	1050.280518
3139.395508	1053.522705
3138.678711	1108.229614
3137.961914	1042.851440
3137.244141	1056.382568
3136.526367	1059.621216
3135.809570	1097.144531
3135.091797	997.535767
3134.374023	1038.483887
3133.656250	1072.563721
3132.938477	1031.256958
3132.219727	1082.453125
3131.501953	976.086975
3130.783203	1106.032227
3130.064453	1023.665527
3129.345703	1054.287964
3128.626953	1019.873657
3127.908203	1084.703369
3127.189453	1057.138306
3126.469727	1039.844727
3125.750977	1032.817139
3125.031250	988.179688
3124.311523	1042.700317
3123.591797	1028.839722
3122.872070	1021.819092
3122.152344	1130.973389
3121.431641	1103.439331
3120.711914	1065.668457
3119.991211	1058.645996
3119.271484	1102.841553
3118.550781	1024.126099
3117.830078	1095.616943
3117.108398	993.043396
3116.387695	1023.571106
3115.666992	1009.741028
3114.945312	1002.737244
3114.223633	1128.728149
3113.502930	1039.878784
3112.781250	998.784973
3112.058594	1087.217773
3111.336914	1056.353027
3110.615234	1107.266724
3109.892578	1086.628418
3109.170898	1045.562988
3108.448242	1123.692017
3107.725586	1075.825684
3107.002930	1065.419434
3106.280273	1038.000610
3105.556641	1037.812866
3104.833984	1095.460083
3104.110352	1095.261963
3103.387695	996.440125
3102.664062	1098.265991
3101.940430	1074.270264
3101.216797	1091.070801
3100.493164	1084.076782
3099.768555	1138.244629
3099.044922	1100.670166
3098.320312	1090.281494
3097.595703	1154.606445
3096.871094	1083.096436
3096.146484	1116.847168
3095.421875	1031.793701
3094.697266	1092.688965
3093.971680	1102.669678
3093.247070	1095.685669
3092.521484	1119.228516
3091.795898	1085.116089
3091.070312	1010.331421
3090.344727	1088.113037
3089.619141	1030.300537
3088.892578	1023.336914
3088.166992	1090.910034
3087.440430	1029.740967
3086.713867	1117.608521
3085.987305	1168.197266
3085.260742	1076.578125
3084.534180	1117.001343
3083.807617	1137.104492
3083.080078	1147.049438
3082.353516	1079.181396
3081.625977	1106.045044
3080.898438	1197.152954
3080.170898	1095.500732
3079.443359	1105.443970
3078.714844	1179.602539
3077.987305	1023.939270
3077.258789	1074.434570
3076.531250	1135.045898
3075.802734	1141.595215
3075.074219	1154.895874
3074.345703	1073.655884
3073.617188	1107.217896
3072.887695	1130.642578
3072.159180	1147.309814
3071.429688	1116.737305
3070.700195	1163.759888
3069.970703	1079.233765
3069.241211	1008.226135
3068.511719	1021.528809
3067.782227	1122.466675
3067.051758	1152.594604
3066.322266	1196.189575
3065.591797	1084.797729
3064.861328	1087.969238
3064.130859	1074.301025
3063.400391	1188.587646
3062.669922	1013.314392
3061.938477	1110.741089
3061.208008	1137.461792
3060.476562	1069.962158
3059.745117	1056.311768
3059.013672	1237.745850
3058.282227	1079.468262
3057.550781	1126.343384
3056.819336	1099.246094
3056.086914	1142.739502
3055.355469	1132.450928
3054.623047	1095.287720
3053.890625	1088.370483
3053.158203	1178.854004
3052.425781	1175.281982
3051.693359	1087.777832
3050.959961	1148.001343
3050.227539	1097.451050
3049.494141	1167.717529
3048.760742	1177.570068
3048.027344	986.161621
3047.293945	1197.264404
3046.560547	1086.395508
3045.826172	1146.542480
3045.092773	1119.519409
3044.358398	1115.964722
3043.624023	1105.710083
3042.889648	1189.259766
3042.155273	1189.043701
3041.420898	1125.200195
3040.686523	1118.299316
3039.951172	1141.529175
3039.215820	1218.302368
3038.481445	1060.801270
3037.746094	1097.411865
3037.010742	1097.212280
3036.275391	1100.357422
3035.539062	1086.781616
3034.803711	1190.227295
3034.067383	1133.184570
3033.331055	1109.583618
3032.595703	1075.966797
3031.859375	1145.930054
3031.122070	1175.784302
3030.385742	1128.814819
3029.649414	1145.304810
3028.912109	1131.742676
3028.175781	1158.239624
3027.438477	1107.970093
3026.701172	1114.441772
3025.963867	1124.247070
3025.225586	1174.074097
3024.488281	1223.882935
3023.750977	1126.967651
3023.012695	1163.432373
3022.274414	1209.882812
3021.536133	1156.344116
3020.797852	1119.483887
3020.059570	1189.235107
3019.321289	1195.679688
3018.582031	1148.842407
3017.842773	1185.256226
3017.104492	1158.410278
3016.365234	1194.809204
3015.625977	1131.368042
3014.886719	1124.508179
3014.146484	1220.767212
3013.407227	1087.515503
3012.666992	1236.948242
3011.927734	1173.556885
3011.187500	1199.934448
3010.447266	1256.212158
3009.707031	1209.465454
3008.965820	1152.769409
3008.225586	1145.916260
3007.484375	1172.274658
3006.744141	1235.146484
3006.002930	1181.806396
3005.261719	1138.443115
3004.520508	1178.057251
3003.779297	1211.021118
3003.037109	1200.848633
3002.295898	1157.513184
3001.553711	1110.877441
3000.811523	1203.507446
3000.069336	1166.824707
2999.327148	1140.098022
2998.584961	1073.617432
2997.842773	1156.247437
2997.099609	1202.410522
2996.357422	1255.180420
2995.614258	1221.839233
2994.871094	1152.093506
2994.127930	1161.813354
2993.384766	1188.076660
2992.641602	1257.344849
2991.897461	1260.423584
2991.153320	1197.349365
2990.410156	1273.191650
2989.666016	1243.201904
2988.921875	1236.363403
2988.177734	1255.968872
2987.432617	1229.302979
2986.688477	1324.893921
2985.943359	1255.281250
2985.199219	1258.354858
2984.454102	1251.520874
2983.708984	1247.990845
2982.963867	1251.063965
2982.217773	1330.044067
2981.472656	1211.010010
2980.727539	1289.968628
2979.981445	1197.373657
2979.235352	1312.583130
2978.489258	1229.909790
2977.743164	1196.717651
2976.997070	1269.014160
2976.250000	1354.466309
2975.503906	1271.845459
2974.756836	1222.198120
2974.009766	1271.380859
2973.262695	1281.027954
2972.515625	1261.038696
2971.768555	1254.224365
2971.021484	1336.278320
2970.273438	1260.347412
2969.526367	1299.598633
2968.778320	1296.071533
2968.030273	1295.834595
2967.282227	1358.075806
2966.534180	1203.304810
2965.785156	1341.143677
2965.037109	1327.752441
2964.288086	1330.795532
2963.540039	1379.831909
2962.791016	1317.170044
2962.041992	1310.360962
2961.291992	1316.688354
2960.542969	1277.052612
2959.793945	1372.005981
2959.043945	1312.684204
2958.293945	1328.849731
2957.543945	1407.338867
2956.793945	1341.483154
2956.043945	1393.706665
2955.293945	1426.238770
2954.542969	1340.746948
2953.792969	1330.669067
2953.041992	1379.579224
2952.291016	1385.879272
2951.540039	1365.971436
2950.789062	1329.695190
2950.038086	1427.687134
2949.286133	1355.399658
2948.535156	1358.424805
2947.783203	1413.812256
2947.031250	1423.369751
2946.279297	1442.738281
2945.527344	1409.764893
2944.775391	1360.451904
2944.023438	1389.630249
2943.270508	1408.990479
2942.517578	1398.926880
2941.764648	1424.813965
2941.011719	1489.899414
2940.258789	1456.959229
2939.505859	1433.829468
2938.752930	1404.177002
2937.999023	1430.039185
2937.245117	1446.098755
2936.492188	1449.097534
2935.738281	1474.937134
2934.984375	1477.929321
2934.229492	1425.467407
2933.475586	1506.739624
2932.720703	1509.724243
2931.966797	1424.683716
2931.211914	1518.949463
2930.457031	1430.679321
2929.702148	1495.583984
2928.947266	1482.278809
2928.191406	1472.235474
2927.436523	1501.274536
2926.680664	1562.862549
2925.924805	1455.148804
2925.168945	1506.958252
2924.413086	1477.394287
2923.657227	1590.998413
2922.900391	1587.453613
2922.144531	1483.086182
2921.387695	1554.353394
2920.630859	1580.077637
2919.875000	1566.785400
2919.117188	1579.497925
2918.360352	1569.459839
2917.603516	1588.664551
2916.845703	1656.585327
2916.088867	1633.548096
2915.331055	1568.307983
2914.573242	1555.034424
2913.815430	1587.207153
2913.057617	1580.425293
2912.298828	1492.530151
2911.541016	1560.380737
2910.782227	1527.659912
2910.023438	1621.421875
2909.264648	1578.974854
2908.505859	1565.718262
2907.747070	1627.010742
2906.988281	1678.559326
2906.228516	1616.693481
2905.468750	1632.592896
2904.709961	1661.441040
2903.950195	1670.850098
2903.190430	1589.605957
2902.429688	1628.156616
2901.669922	1585.785522
2900.910156	1617.851196
2900.149414	1656.375122
2899.388672	1633.429077
2898.627930	1688.105469
2897.867188	1642.528687
2897.106445	1703.648682
2896.344727	1651.621338
2895.583984	1696.559204
2894.822266	1680.092529
2894.060547	1695.935425
2893.298828	1614.879639
2892.537109	1704.999268
2891.775391	1707.914307
2891.013672	1756.019897
2890.250977	1729.877808
2889.489258	1752.147217
2888.726562	1758.277344
2887.963867	1825.691528
2887.201172	1664.105225
2886.438477	1766.980347
2885.674805	1776.326782
2884.912109	1701.865601
2884.148438	1775.673096
2883.384766	1704.461426
2882.621094	1775.019653
2881.857422	1771.472168
2881.093750	1687.419189
2880.329102	1761.161011
2879.565430	1867.066528
2878.800781	1776.605225
2878.036133	1837.418091
2877.271484	1798.472168
2876.506836	1865.692017
2875.742188	1823.538940
2874.977539	1752.461548
2874.211914	1816.437500
2873.446289	1800.031250
2872.681641	1709.714844
2871.916016	1841.139404
2871.150391	1773.336304
2870.383789	1940.032349
2869.618164	1843.333496
2868.851562	1862.258667
2868.085938	1900.437866
2867.319336	1749.236206
2866.552734	1886.901611
2865.786133	1963.556030
2865.018555	1831.672974
2864.251953	1940.381714
2863.484375	1875.890991
2862.717773	1917.224121
2861.950195	1839.939453
2861.182617	1948.566040
2860.415039	1890.529663
2859.646484	1925.421875
2858.878906	2011.550659
2858.110352	1860.661499
2857.342773	1985.193481
2856.574219	1869.579346
2855.805664	1910.844238
2855.037109	1964.894531
2854.267578	1884.542969
2853.499023	1976.965576
2852.729492	1903.038086
2851.959961	1931.467163
2851.191406	2014.238159
2850.421875	1997.883423
2849.651367	2016.690918
2848.881836	1981.169067
2848.112305	2006.362183
2847.341797	1977.243652
2846.571289	1960.910400
2845.800781	1880.721558
2845.030273	2036.806274
2844.259766	1978.976196
2843.489258	1927.549927
2842.717773	1908.049805
2841.947266	2092.725098
2841.175781	2006.221069
2840.404297	2005.850586
2839.632812	2011.856934
2838.861328	2170.874023
2838.088867	1991.990845
2837.317383	1994.809570
2836.544922	2054.975342
2835.772461	1994.072632
2835.000000	2041.476807
2834.227539	2095.231689
2833.455078	2040.722534
2832.682617	2110.373047
2831.909180	2008.143799
2831.135742	2138.230225
2830.362305	2115.565918
2829.589844	2070.645020
2828.815430	2048.001465
2828.041992	1993.570679
2827.268555	2098.107666
2826.494141	2091.363037
2825.719727	2208.554199
2824.946289	2179.551270
2824.171875	2220.444092
2823.396484	2188.273438
2822.622070	2073.553467
2821.847656	2133.491943
2821.072266	2139.445801
2820.296875	2189.828857
2819.522461	2192.596924
2818.746094	2214.398682
2817.970703	2258.395752
2817.195312	2134.296631
2816.419922	2206.828613
2815.643555	2314.205322
2814.867188	2091.907959
2814.090820	2237.293701
2813.314453	2221.037842
2812.538086	2258.640381
2811.761719	2334.235352
2810.984375	2251.471191
2810.208008	2257.386475
2809.430664	2279.126709
2808.653320	2224.902100
2807.875977	2373.211670
2807.097656	2258.879150
2806.320312	2207.851074
2805.542969	2356.081055
2804.764648	2276.596191
2803.986328	2310.949463
2803.208008	2376.897705
2802.429688	2297.452881
2801.651367	2338.102295
2800.872070	2315.556152
2800.093750	2349.869873
2799.314453	2238.910156
2798.535156	2399.515381
2797.755859	2421.167480
2796.976562	2392.314209
2796.197266	2335.071777
2795.416992	2394.582520
2794.637695	2441.453857
2793.857422	2519.844971
2793.077148	2349.107178
2792.296875	2395.960449
2791.516602	2389.212402
2790.735352	2332.043945
2789.955078	2445.041504
2789.173828	2416.236084
2788.393555	2437.835693
2787.612305	2301.973389
2786.831055	2496.752930
2786.048828	2373.521484
2785.267578	2536.742188
2784.485352	2552.005371
2783.704102	2586.139893
2782.921875	2529.039795
2782.139648	2456.235840
2781.357422	2578.412109
2780.575195	2590.509033
2779.791992	2555.452637
2779.009766	2526.694580
2778.226562	2667.619141
2777.443359	2566.596436
2776.660156	2584.965576
2775.876953	2609.608398
2775.093750	2562.027832
2774.309570	2718.510254
2773.525391	2626.986816
2772.742188	2570.015381
2771.958008	2607.187256
2771.173828	2631.797852
2770.389648	2615.627930
2769.604492	2571.242920
2768.820312	2671.087891
2768.035156	2698.802490
2767.250000	2670.095947
2766.464844	2685.266846
2765.679688	2568.856201
2764.894531	2656.079834
2764.109375	2636.796875
2763.323242	2814.774170
2762.537109	2789.208008
2761.750977	2732.352539
2760.964844	2691.164551
2760.178711	2678.149658
2759.392578	2780.879150
2758.606445	2864.805420
2757.819336	2789.226318
2757.032227	2729.307373
2756.245117	2878.837158
2755.458008	2872.051514
2754.670898	2787.153076
2753.883789	2799.131104
2753.095703	2836.092041
2752.308594	2713.772705
2751.520508	2772.591553
2750.732422	2800.171387
2749.944336	2883.921143
2749.156250	2898.987305
2748.367188	2889.088379
2747.579102	2882.312012
2746.790039	2972.221191
2746.000977	2856.293945
2745.211914	2858.880371
2744.422852	2861.465332
2743.633789	2879.631836
2742.843750	3062.934570
2742.054688	3015.634521
2741.264648	2937.204834
2740.474609	2998.941406
2739.684570	3007.724121
2738.894531	2929.339111
2738.103516	2928.793701
2737.313477	3096.288330
2736.522461	2955.704834
2735.731445	2992.482666
2734.940430	2939.053711
2734.149414	3078.435303
2733.358398	3043.663574
2732.567383	3043.096680
2731.775391	2992.805176
2730.983398	3088.571533
2730.192383	3050.716553
2729.400391	3078.102783
2728.607422	3117.900635
2727.815430	3083.165771
2727.023438	3039.130859
2726.230469	3026.149658
2725.437500	3084.545898
2724.644531	3059.150391
2723.851562	3074.090332
2723.058594	3026.996094
2722.265625	3035.734375
2721.471680	3221.185059
2720.678711	3118.294434
2719.884766	3096.019287
2719.090820	3166.708740
2718.296875	3144.432617
2717.501953	3221.280762
2716.708008	3316.681152
2715.913086	3266.522949
2715.119141	3182.331299
2714.324219	3169.357422
2713.529297	3205.900391
2712.733398	3332.153076
2711.938477	3254.197998
2711.143555	3219.570557
2710.347656	3271.537109
2709.551758	3311.117676
2708.755859	3400.139893
2707.959961	3390.234131
2707.164062	3185.669189
2706.367188	3376.611572
2705.571289	3274.053467
2704.774414	3313.588379
2703.977539	3368.546143
2703.180664	3392.613281
2702.383789	3447.535645
2701.586914	3468.492920
2700.789062	3526.465576
2699.992188	3461.028564
2699.194336	3426.457031
2698.396484	3373.396973
2697.598633	3557.745117
2696.800781	3387.549072
2696.001953	3374.589111
2695.204102	3503.370850
2694.405273	3422.619141
2693.606445	3535.943115
2692.807617	3402.863281
2692.008789	3359.122559
2691.209961	3460.080811
2690.410156	3545.612305
2689.611328	3600.339600
2688.811523	3645.816406
2688.011719	3682.047852
2687.211914	3632.151855
2686.412109	3582.274414
2685.611328	3526.266602
2684.811523	3642.410400
2684.010742	3783.096191
2683.209961	3410.602539
2682.409180	3529.774414
2681.608398	3734.902588
2680.807617	3599.084961
2680.005859	3601.482178
2679.205078	3692.900879
2678.403320	3790.423584
2677.601562	3722.205566
2676.799805	3678.557129
2675.998047	3705.475830
2675.195312	3815.190186
2674.393555	3734.752686
2673.590820	3724.856689
2672.788086	3782.397461
2671.985352	3640.718994
2671.182617	3857.582031
2670.379883	3669.990967
2669.577148	3709.121094
2668.773438	3886.039307
2667.969727	3870.003418
2667.166016	3814.178467
2666.362305	3932.826416
2665.558594	3809.690430
2664.754883	3842.630859
2663.950195	3796.028564
2663.145508	3764.734863
2662.341797	3816.010742
2661.537109	3763.324951
2660.731445	3680.093018
2659.926758	3985.002197
2659.122070	3941.479980
2658.316406	3778.835205
2657.510742	4022.468506
2656.705078	3844.600586
2655.899414	3972.111328
2655.093750	3855.370117
2654.288086	3894.323486
2653.481445	4003.444336
2652.675781	3963.033203
2651.869141	3916.536377
2651.062500	3952.398682
2650.255859	4015.689209
2649.448242	3987.499512
2648.641602	3907.504639
2647.833984	3976.862305
2647.026367	3973.069824
2646.218750	4060.666260
2645.411133	4026.402344
2644.603516	4107.865234
2643.795898	4088.827637
2642.987305	4225.039551
2642.179688	4059.903320
2641.371094	4226.497559
2640.562500	4088.802979
2639.752930	4197.536621
2638.944336	4269.736328
2638.135742	4217.245605
2637.326172	4021.895508
2636.516602	4124.480957
2635.707031	4254.376953
2634.897461	4268.770020
2634.087891	4024.952637
2633.278320	4264.130371
2632.467773	4169.196777
2631.657227	4180.557617
2630.846680	4352.791992
2630.036133	4178.988281
2629.225586	4314.746094
2628.415039	4371.576660
2627.603516	4203.932617
2626.792969	4333.543945
2625.981445	4205.385742
2625.169922	4365.261719
2624.358398	4343.226074
2623.545898	4348.470703
2622.734375	4423.396973
2621.921875	4365.011719
2621.110352	4391.449219
2620.297852	4420.904297
2619.485352	4374.661621
2618.671875	4473.726562
2617.859375	4521.306641
2617.045898	4381.272949
2616.233398	4431.877441
2615.419922	4440.118164
2614.606445	4475.571777
2613.792969	4423.331543
2612.978516	4437.614258
2612.165039	4509.315918
2611.350586	4541.707520
2610.537109	4555.959473
2609.722656	4715.195801
2608.907227	4587.466797
2608.092773	4659.071289
2607.278320	4628.005859
2606.462891	4488.291016
2605.647461	4514.606934
2604.833008	4664.618652
2604.017578	4639.607910
2603.201172	4554.284668
2602.385742	4601.675781
2601.569336	4646.034180
2600.753906	4648.173828
2599.937500	4587.022949
2599.121094	4679.570312
2598.304688	4732.917480
2597.488281	4792.269043
2596.670898	4746.193848
2595.853516	4685.080566
2595.037109	4732.365234
2594.219727	4809.729980
2593.402344	4820.861328
2592.583984	4747.744629
2591.766602	4828.070312
2590.948242	4809.115723
2590.130859	4856.321777
2589.312500	4765.213867
2588.494141	4767.322266
2587.675781	4736.371094
2586.856445	4726.464355
2586.038086	4869.774414
2585.218750	4874.864258
2584.399414	4961.034180
2583.580078	4930.074219
2582.760742	4908.131836
2581.941406	4958.229492
2581.121094	4873.273438
2580.301758	4935.359375
2579.481445	4958.426270
2578.661133	5026.470215
2577.840820	4917.576172
2577.020508	4814.718262
2576.199219	5020.630371
2575.378906	4992.712402
2574.557617	5024.729492
2573.736328	5146.605469
2572.915039	4962.931641
2572.093750	5030.870605
2571.271484	4985.011719
2570.450195	5091.834961
2569.627930	5045.981445
2568.805664	5039.044922
2567.983398	5130.837891
2567.161133	5108.931641
2566.338867	5230.583008
2565.515625	5244.545898
2564.693359	5144.903320
2563.870117	5081.165039
2563.046875	5289.390625
2562.223633	5046.380859
2561.400391	5230.636719
2560.576172	5235.622559
2559.752930	5076.370605
2558.928711	5359.038086
2558.104492	5223.702148
2557.280273	5201.825195
2556.456055	5156.084961
2555.630859	5528.021484
2554.806641	5189.930176
2553.981445	5373.843262
2553.156250	5202.877441
2552.331055	5324.116699
2551.505859	5355.895996
2550.680664	5354.884277
2549.854492	5443.252441
2549.029297	5457.118164
2548.203125	5533.520020
2547.376953	5568.206055
2546.550781	5331.963867
2545.723633	5268.449219
2544.897461	5428.155273
2544.070312	5418.203125
2543.243164	5348.757324
2542.416016	5374.514648
2541.588867	5424.051758
2540.761719	5443.837891
2539.934570	5627.108887
2539.106445	5486.359863
2538.278320	5422.921387
2537.450195	5606.091797
2536.622070	5605.031250
2535.793945	5586.152344
2534.965820	5683.079590
2534.136719	5560.289551
2533.308594	5547.365234
2532.479492	5703.594727
2531.650391	5655.043945
2530.820312	5630.242676
2529.991211	5724.084473
2529.162109	5835.681641
2528.332031	5739.706055
2527.501953	5780.118164
2526.671875	5598.244141
2525.841797	5736.447266
2525.011719	5735.361328
2524.180664	5903.104492
2523.350586	5715.421387
2522.519531	5743.947266
2521.688477	5825.746094
2520.857422	5756.570312
2520.025391	5752.520508
2519.194336	5881.607422
2518.362305	5951.485352
2517.531250	5849.805176
2516.699219	5848.696777
2515.867188	5945.146973
2515.034180	6000.180176
2514.202148	5780.358887
2513.369141	5924.040527
2512.537109	5917.009766
2511.704102	6090.145508
2510.871094	6009.261719
2510.037109	6064.217773
2509.204102	5885.958496
2508.370117	6011.747559
2507.537109	6217.157715
2506.703125	6136.324707
2505.869141	5967.034180
2505.035156	6142.845215
2504.200195	6103.350098
2503.366211	6090.400879
2502.531250	6157.035156
2501.696289	6099.877930
2500.861328	6051.581055
2500.026367	6091.672363
2499.191406	6187.706055
2498.355469	6015.747070
2497.520508	6185.358398
2496.684570	6151.806641
2495.848633	6233.040039
2495.012695	6331.896484
2494.175781	6174.781250
2493.339844	6317.728516
2492.502930	6172.437012
2491.666992	6338.851074
2490.830078	6396.438477
2489.992188	6389.346191
2489.155273	6326.426270
2488.318359	6292.908691
2487.480469	6429.767090
2486.642578	6334.570312
2485.804688	6248.217285
2484.966797	6414.361816
2484.128906	6454.234863
2483.291016	6461.812500
2482.452148	6437.113281
2481.613281	6576.693848
2480.774414	6405.338867
2479.935547	6550.736816
2479.096680	6282.704102
2478.257812	6656.700684
2477.417969	6482.529297
2476.579102	6595.569824
2475.739258	6641.187988
2474.899414	6440.757324
2474.058594	6515.671387
2473.218750	6514.432617
2472.377930	6554.176270
2471.538086	6506.102539
2470.697266	6522.422363
2469.856445	6597.248047
2469.015625	6654.494629
2468.173828	6600.587891
2467.333008	6771.845215
2466.491211	6641.928223
2465.649414	6672.815918
2464.807617	6686.157715
2463.965820	6731.633301
2463.124023	6870.568359
2462.281250	6802.087402
2461.439453	6786.192871
2460.596680	6910.439453
2459.753906	6847.826660
2458.911133	6796.911133
2458.067383	6871.480957
2457.224609	6957.690918
2456.380859	6933.032715
2455.537109	6987.120117
2454.693359	7084.920410
2453.849609	6937.818848
2453.005859	6956.899414
2452.161133	7118.755371
2451.317383	7000.864258
2450.472656	6833.500000
2449.627930	6934.127930
2448.783203	6854.190918
2447.937500	7007.177246
2447.092773	7008.752930
2446.247070	6987.047363
2445.402344	7052.634766
2444.556641	7028.019043
2443.709961	7061.580566
2442.864258	7118.392090
2442.018555	7035.631348
2441.171875	7063.357910
2440.325195	6977.732422
2439.478516	7205.946777
2438.631836	7102.895508
2437.785156	7336.807617
2436.937500	7108.899414
2436.090820	7406.595215
2435.243164	7254.234375
2434.395508	7116.443359
2433.547852	7361.734375
2432.700195	7229.776855
2431.851562	7373.430176
2431.003906	7247.319824
2430.155273	7254.636230
2429.306641	7189.474609
2428.458008	7446.062988
2427.609375	7247.586914
2426.759766	7391.070312
2425.911133	7189.782715
2425.061523	7480.928711
2424.211914	7505.562012
2423.362305	7582.297852
2422.512695	7479.541016
2421.662109	7336.306641
2420.811523	7592.423828
2419.961914	7397.149902
2419.111328	7410.199707
2418.260742	7426.135254
2417.409180	7647.343262
2416.558594	7547.599609
2415.707031	7624.191895
2414.856445	7472.477051
2414.004883	7447.937988
2413.153320	7640.043457
2412.300781	7508.627441
2411.449219	7550.503418
2410.596680	7751.139160
2409.745117	7862.223145
2408.892578	7696.234375
2408.040039	7700.534180
2407.186523	7929.832520
2406.333984	7570.691895
2405.480469	7647.100098
2404.626953	7864.744141
2403.774414	7701.825684
2402.919922	7792.573242
2402.066406	7860.234863
2401.212891	7619.628418
2400.358398	7983.958984
2399.503906	7754.938965
2398.649414	8032.729980
2397.794922	7731.823242
2396.940430	7943.317383
2396.085938	7898.636230
2395.230469	7992.063477
2394.375000	7898.491211
2393.519531	7822.208984
2392.664062	8067.984863
2391.808594	7997.448242
2390.952148	8013.163086
2390.096680	7954.157227
2389.240234	7877.935547
2388.383789	8123.463867
2387.527344	8116.165039
2386.670898	8045.697754
2385.813477	7955.161133
2384.957031	7916.324219
2384.099609	8198.915039
2383.242188	8022.323242
2382.384766	8124.059082
2381.526367	8128.239746
2380.668945	8247.121094
2379.810547	8193.935547
2378.953125	8200.964844
2378.094727	8130.612305
2377.236328	8137.651367
2376.376953	8159.010742
2375.518555	8272.018555
2374.659180	8330.572266
2373.799805	8380.512695
2372.940430	8252.951172
2372.081055	8302.887695
2371.221680	8229.757812
2370.361328	8342.620117
2369.501953	8172.255371
2368.641602	8356.582031
2367.781250	8252.043945
2366.920898	8350.519531
2366.059570	8454.672852
2365.199219	8461.625000
2364.337891	8497.145508
2363.476562	8426.958008
2362.615234	8436.765625
2361.753906	8652.166016
2360.892578	8584.842773
2360.030273	8694.517578
2359.168945	8553.010742
2358.306641	8417.264648
2357.444336	8894.914062
2356.582031	8414.035156
2355.718750	8549.300781
2354.856445	8636.044922
2353.993164	8517.513672
2353.129883	8849.332031
2352.266602	8693.761719
2351.403320	8629.416992
2350.540039	8710.363281
2349.675781	8554.908203
2348.811523	8627.294922
2347.947266	8736.662109
2347.083008	8937.064453
2346.218750	8741.843750
2345.354492	8896.646484
2344.489258	8781.155273
2343.625000	8625.892578
2342.759766	8701.008789
2341.894531	8807.368164
2341.028320	8879.578125
2340.163086	9056.908203
2339.296875	8890.373047
2338.431641	8971.046875
2337.565430	8955.122070
2336.699219	8919.325195
2335.832031	8857.990234
2334.965820	8969.830078
2334.098633	8885.803711
2333.231445	9079.879883
2332.364258	8950.473633
2331.497070	9289.117188
2330.629883	9117.181641
2329.762695	9036.041016
2328.894531	9110.841797
2328.026367	9245.130859
2327.158203	9300.025391
2326.290039	9159.415039
2325.421875	9265.291016
2324.552734	9436.260742
2323.684570	9222.085938
2322.815430	9251.452148
2321.946289	9176.082031
2321.077148	9321.467773
2320.207031	9413.041016
2319.337891	9249.991211
2318.467773	9078.519531
2317.597656	9328.433594
2316.727539	9199.417969
2315.857422	9398.333008
2314.987305	9421.958008
2314.116211	9406.017578
2313.245117	9472.004883
2312.374023	9701.781250
2311.502930	9380.818359
2310.631836	9379.011719
2309.760742	9569.153320
2308.888672	9561.666016
2308.016602	9356.664062
2307.144531	9402.821289
2306.272461	9578.707031
2305.400391	9430.218750
2304.528320	9648.323242
2303.655273	9621.093750
2302.782227	9636.150391
2301.909180	9716.011719
2301.036133	9683.148438
2300.163086	9684.099609
2299.289062	9668.151367
2298.416016	9815.520508
2297.541992	9425.136719
2296.667969	9696.336914
2295.793945	9908.336914
2294.919922	9737.615234
2294.044922	9842.630859
2293.169922	9984.167969
2292.294922	9945.687500
2291.419922	9828.503906
2290.544922	9986.825195
2289.669922	10139.463867
2288.793945	9800.339844
2287.918945	9919.244141
2287.042969	9948.226562
2286.166992	9935.074219
2285.290039	9972.462891
2284.414062	9936.854492
2283.537109	10021.938477
2282.661133	9778.693359
2281.784180	10105.037109
2280.907227	9946.014648
2280.029297	10081.506836
2279.152344	9771.145508
2278.274414	9962.681641
2277.397461	9913.113281
2276.519531	10183.006836
2275.640625	10018.547852
2274.762695	10268.708984
2273.884766	10168.707031
2273.005859	10404.742188
2272.126953	10077.997070
2271.248047	10199.202148
2270.369141	10286.779297
2269.490234	10254.016602
2268.610352	10361.128906
2267.730469	10504.557617
2266.850586	10323.571289
2265.970703	10240.501953
2265.090820	10543.191406
2264.210938	10488.056641
2263.330078	10279.270508
2262.449219	10584.568359
2261.569336	10635.587891
2260.687500	10703.342773
2259.806641	10525.384766
2258.925781	10648.959961
2258.043945	10337.122070
2257.162109	10580.666016
2256.280273	10542.353516
2255.398438	10690.930664
2254.516602	10527.121094
2253.633789	10700.735352
2252.751953	10734.904297
2251.869141	10688.234375
2250.986328	10675.021484
2250.103516	10561.517578
2249.219727	10654.177734
2248.336914	10757.941406
2247.453125	10769.781250
2246.569336	10653.561523
2245.685547	10698.814453
2244.801758	10796.920898
2243.916992	10764.227539
2243.033203	11006.926758
2242.148438	10999.234375
2241.263672	10916.467773
2240.378906	10675.272461
2239.494141	10978.948242
2238.608398	10757.286133
2237.723633	10999.702148
2236.837891	10936.458008
2235.952148	11264.841797
2235.066406	11001.641602
2234.179688	10846.816406
2233.293945	11063.996094
2232.407227	11328.269531
2231.520508	11303.876953
2230.633789	11076.984375
2229.747070	11008.272461
2228.859375	11147.563477
2227.972656	11261.847656
2227.084961	11320.647461
2226.197266	11129.996094
2225.309570	11213.736328
2224.421875	11067.503906
2223.533203	11195.539062
2222.645508	11218.291992
2221.756836	11293.640625
2220.868164	11643.010742
2219.979492	11460.855469
2219.089844	11397.755859
2218.201172	11431.509766
2217.311523	11304.820312
2216.421875	11438.137695
2215.532227	11438.683594
2214.642578	11480.694336
2213.751953	11616.662109
2212.862305	11437.552734
2211.971680	11573.474609
2211.081055	11317.097656
2210.190430	11187.860352
2209.299805	11436.958984
2208.408203	11528.602539
2207.517578	11868.622070
2206.625977	11571.040039
2205.734375	11657.083008
2204.842773	11941.708008
2203.950195	11699.442383
2203.058594	11586.872070
2202.166016	11736.252930
2201.273438	11849.742188
2200.380859	11789.567383
2199.488281	11905.755859
2198.594727	11688.569336
2197.702148	12157.275391
2196.808594	11997.951172
2195.915039	11791.884766
2195.021484	11974.020508
2194.127930	11773.541016
2193.233398	11961.112305
2192.338867	12085.334961
2191.445312	12080.235352
2190.550781	12149.386719
2189.655273	12070.040039
2188.760742	11878.019531
2187.865234	12238.494141
2186.970703	12131.697266
2186.075195	12170.547852
2185.179688	12349.466797
2184.283203	12327.841797
2183.387695	11998.706055
2182.491211	12043.039062
2181.595703	12306.925781
2180.699219	12266.114258
2179.801758	12400.906250
2178.905273	12549.359375
2178.008789	12459.158203
2177.111328	12544.476562
2176.213867	12585.897461
2175.316406	12580.707031
2174.418945	12504.268555
2173.520508	12740.199219
2172.623047	12693.890625
2171.724609	12694.158203
2170.826172	12754.666016
2169.927734	12522.215820
2169.028320	12719.590820
2168.129883	12845.735352
2167.230469	12528.582031
2166.331055	12879.030273
2165.431641	12542.847656
2164.532227	12811.119141
2163.632812	13087.488281
2162.732422	12833.462891
2161.833008	13068.724609
2160.932617	12822.998047
2160.031250	12973.481445
2159.130859	12949.102539
2158.230469	13104.963867
2157.329102	13159.745117
2156.427734	13176.287109
2155.526367	13337.469727
2154.625000	13149.322266
2153.723633	13064.915039
2152.821289	13196.018555
2151.918945	13231.625000
2151.017578	13368.096680
2150.114258	13447.268555
2149.211914	13153.023438
2148.309570	13254.004883
2147.406250	13472.094727
2146.502930	13385.027344
2145.599609	13605.728516
2144.696289	13442.429688
2143.792969	13271.026367
2142.888672	13322.871094
2141.985352	13382.859375
2141.081055	13671.359375
2140.176758	13521.803711
2139.271484	13530.042969
2138.367188	13774.837891
2137.461914	13693.310547
2136.557617	13840.127930
2135.652344	13603.722656
2134.746094	13886.346680
2133.840820	13633.724609
2132.935547	13698.958984
2132.029297	13810.329102
2131.123047	13821.206055
2130.216797	13810.363281
2129.310547	13899.933594
2128.403320	13975.902344
2127.497070	13908.067383
2126.589844	14114.187500
2125.682617	14198.203125
2124.775391	14130.361328
2123.867188	14279.393555
2122.959961	14382.294922
2122.051758	14135.625977
2121.143555	14295.403320
2120.235352	14279.066406
2119.327148	14631.015625
2118.418945	14484.662109
2117.509766	14303.175781
2116.600586	14435.697266
2115.691406	14516.754883
2114.782227	14470.631836
2113.873047	14649.020508
2112.962891	14608.295898
2112.053711	14713.586914
2111.143555	14545.815430
2110.233398	14688.913086
2109.322266	14729.273438
2108.412109	14907.398438
2107.500977	14888.274414
2106.589844	14777.339844
2105.679688	15063.348633
2104.767578	14779.654297
2103.856445	14855.031250
2102.944336	15097.680664
2102.033203	15035.371094
2101.121094	15218.545898
2100.208984	15061.846680
2099.296875	15161.357422
2098.383789	15139.518555
2097.471680	15198.544922
2096.558594	15370.725586
2095.645508	15195.286133
2094.732422	15337.768555
2093.818359	15531.363281
2092.905273	15517.550781
2091.991211	15315.295898
2091.077148	15543.769531
2090.163086	15602.618164
2089.249023	15750.228516
2088.333984	15973.100586
2087.419922	15620.341797
2086.504883	15915.750977
2085.589844	15950.268555
2084.674805	15861.129883
2083.758789	15946.703125
2082.843750	15846.851562
2081.927734	15935.078125
2081.011719	15907.782227
2080.095703	16095.314453
2079.179688	16360.628906
2078.262695	16373.525391
2077.345703	16195.876953
2076.429688	16214.165039
2075.512695	16307.557617
2074.594727	16575.248047
2073.677734	16424.511719
2072.759766	16434.693359
2071.842773	16755.810547
2070.924805	16532.763672
2070.006836	16676.888672
2069.087891	16646.826172
2068.169922	16825.691406
2067.250977	16905.402344
2066.332031	16706.636719
2065.413086	17035.283203
2064.494141	16932.916016
2063.574219	17039.296875
2062.655273	16923.591797
2061.735352	16925.617188
2060.815430	17061.351562
2059.895508	17274.568359
2058.975586	17081.380859
2058.054688	17200.966797
2057.133789	17328.519531
2056.212891	17528.154297
2055.291992	17706.341797
2054.371094	17694.851562
2053.450195	18033.132812
2052.528320	17711.921875
2051.606445	17743.138672
2050.684570	17579.544922
2049.762695	17754.839844
2048.839844	18023.419922
2047.917969	18139.884766
2046.995117	17920.347656
2046.072266	17932.818359
2045.149414	17969.271484
2044.226562	18450.722656
2043.302734	18026.146484
2042.379883	18592.632812
2041.456055	18535.712891
2040.532227	18590.644531
2039.607422	18749.376953
2038.683594	18913.371094
2037.758789	18891.021484
2036.833984	18935.195312
2035.909180	19067.130859
2034.984375	19023.486328
2034.059570	18700.664062
2033.133789	19196.773438
2032.208984	19256.785156
2031.283203	19239.708984
2030.357422	19379.392578
2029.430664	19388.859375
2028.504883	19456.750000
2027.578125	19354.671875
2026.651367	19738.462891
2025.724609	19944.263672
2024.797852	19969.527344
2023.871094	20233.570312
2022.943359	20067.769531
2022.015625	19856.945312
2021.087891	20441.703125
2020.160156	20085.074219
2019.232422	20290.515625
2018.303711	20657.531250
2017.375000	20751.496094
2016.446289	20302.365234
2015.517578	21156.488281
2014.588867	21075.525391
2013.660156	21021.068359
2012.730469	21051.335938
2011.800781	21298.597656
2010.871094	21162.103516
2009.941406	21417.179688
2009.010742	21449.984375
2008.081055	21852.986328
2007.150391	21938.566406
2006.219727	21693.697266
2005.289062	21493.851562
2004.357422	21909.734375
2003.426758	22037.500000
2002.495117	22196.908203
2001.563477	21870.361328
2000.631836	22399.363281
1999.700195	22653.630859
1998.767578	22770.562500
1997.835938	22911.191406
1996.903320	22985.812500
1995.970703	23284.597656
1995.037109	23061.125000
1994.104492	23096.121094
1993.170898	23392.068359
1992.238281	23384.812500
1991.304688	23556.740234
1990.370117	23826.072266
1989.436523	23787.125000
1988.501953	23900.931641
1987.568359	24088.412109
1986.633789	24310.039062
1985.699219	24394.718750
1984.763672	24545.148438
1983.829102	24411.388672
1982.893555	24732.722656
1981.958008	25117.042969
1981.022461	25096.304688
1980.086914	25301.642578
1979.150391	25451.707031
1978.214844	25425.654297
1977.278320	25436.392578
1976.341797	25573.203125
1975.405273	25694.203125
1974.467773	26019.951172
1973.531250	25988.554688
1972.593750	26067.402344
1971.656250	26130.472656
1970.718750	26322.070312
1969.780273	26849.339844
1968.842773	26518.837891
1967.904297	26781.035156
1966.965820	26857.001953
1966.027344	27008.945312
1965.088867	27150.345703
1964.149414	27249.769531
1963.210938	27645.144531
1962.271484	27940.845703
1961.332031	27796.541016
1960.391602	27929.785156
1959.452148	27748.896484
1958.511719	28088.820312
1957.571289	28378.900391
1956.630859	28145.708984
1955.690430	28440.890625
1954.750000	29039.261719
1953.808594	28968.156250
1952.867188	28915.373047
1951.925781	29366.951172
1950.984375	28984.910156
1950.042969	29269.117188
1949.100586	29393.900391
1948.159180	29539.521484
1947.216797	29820.833984
1946.274414	29841.025391
1945.331055	30109.115234
1944.388672	30129.238281
1943.445312	30303.253906
1942.501953	30096.431641
1941.558594	30439.869141
1940.615234	30968.265625
1939.670898	30612.859375
1938.727539	31307.787109
1937.783203	31145.253906
1936.838867	30750.947266
1935.894531	31651.175781
1934.949219	31311.603516
1934.004883	31419.939453
1933.059570	31861.396484
1932.114258	32081.478516
1931.168945	31978.847656
1930.222656	32164.998047
1929.277344	32174.220703
1928.331055	32183.437500
1927.384766	32767.191406
1926.438477	32955.632812
1925.491211	32699.613281
1924.544922	32885.390625
1923.597656	32876.265625
1922.650391	33087.898438
1921.703125	33102.101562
1920.755859	33375.914062
1919.807617	33587.316406
1918.860352	33557.292969
1917.912109	33620.679688
1916.963867	33601.035156
1916.014648	33594.359375
1915.066406	33828.839844
1914.117188	34306.921875
1913.168945	34318.250000
1912.218750	34523.933594
1911.269531	34530.027344
1910.320312	34637.148438
1909.370117	34464.507812
1908.419922	35275.917969
1907.469727	34797.722656
1906.519531	35215.304688
1905.569336	35050.445312
1904.618164	34862.359375
1903.666992	35300.367188
1902.715820	35412.324219
1901.764648	35356.148438
1900.813477	35543.019531
1899.861328	35724.640625
1898.910156	35968.210938
1897.958008	35684.593750
1897.005859	35659.410156
1896.052734	36006.152344
1895.100586	35973.167969
1894.147461	36033.136719
1893.194336	36085.332031
1892.241211	36710.421875
1891.288086	36757.300781
1890.333984	36492.019531
1889.379883	36415.117188
1888.426758	36562.585938
1887.471680	36408.355469
1886.517578	36645.980469
1885.563477	36687.648438
1884.608398	36755.066406
1883.653320	37080.062500
1882.698242	37036.617188
1881.743164	37178.593750
1880.787109	37178.914062
1879.832031	37161.210938
1878.875977	36937.632812
1877.919922	37293.070312
1876.963867	37290.785156
1876.006836	37393.949219
1875.050781	37589.640625
1874.093750	37659.281250
1873.136719	37600.367188
1872.179688	37888.414062
1871.221680	37837.179688
1870.264648	37914.414062
1869.306641	37542.144531
1868.348633	37819.691406
1867.390625	37984.164062
1866.431641	38230.710938
1865.473633	38284.679688
1864.514648	37892.167969
1863.555664	38189.882812
1862.596680	38333.589844
1861.637695	38241.320312
1860.677734	38228.566406
1859.717773	38482.394531
1858.757812	38549.035156
1857.797852	38572.089844
1856.837891	38805.195312
1855.876953	38784.644531
1854.916992	38359.507812
1853.956055	38420.976562
1852.995117	38669.277344
1852.033203	38699.945312
1851.072266	38960.882812
1850.110352	38513.097656
1849.148438	38912.074219
1848.186523	38669.050781
1847.224609	38978.347656
1846.261719	39251.738281
1845.299805	39435.566406
1844.336914	39218.171875
1843.374023	39248.656250
1842.410156	39365.964844
1841.447266	39089.976562
1840.483398	38916.218750
1839.519531	39467.449219
1838.555664	39171.183594
1837.591797	39370.027344
1836.626953	39285.628906
1835.663086	39548.128906
1834.698242	39392.324219
1833.733398	39494.078125
1832.768555	39776.765625
1831.802734	39623.550781
1830.837891	39600.339844
1829.872070	39238.324219
1828.906250	39523.375000
1827.939453	39698.816406
1826.973633	39342.082031
1826.006836	40314.195312
1825.040039	39733.531250
1824.073242	39789.191406
1823.106445	40099.214844
1822.139648	39895.351562
1821.171875	39584.769531
1820.204102	39861.589844
1819.236328	40011.207031
1818.268555	39995.574219
1817.300781	40056.171875
1816.332031	39956.703125
1815.363281	40106.171875
1814.394531	39966.097656
1813.425781	40102.804688
1812.457031	40452.675781
1811.487305	39523.359375
1810.517578	39733.648438
1809.547852	39880.433594
1808.578125	39882.589844
1807.607422	39790.921875
1806.637695	40368.589844
1805.666992	40368.109375
1804.696289	40453.785156
1803.725586	40002.281250
1802.753906	39979.066406
1801.783203	40414.273438
1800.811523	40383.386719
1799.839844	40094.273438
1798.868164	40083.707031
1797.895508	40564.089844
1796.923828	40171.375000
1795.951172	40330.277344
1794.978516	40430.941406
1794.005859	41024.652344
1793.032227	40293.378906
1792.059570	40388.929688
1791.085938	40380.828125
1790.112305	40875.523438
1789.138672	40629.871094
1788.164062	40702.539062
1787.190430	40818.101562
1786.215820	41138.109375
1785.241211	40746.195312
1784.266602	40937.378906
1783.291016	40888.792969
1782.316406	41120.230469
1781.340820	40902.644531
1780.365234	40944.867188
1779.389648	41299.675781
1778.413086	41331.714844
1777.437500	41645.976562
1776.460938	41388.183594
1775.484375	41735.050781
1774.507812	41311.117188
1773.530273	41680.519531
1772.553711	41777.882812
1771.576172	41739.285156
1770.598633	41481.769531
1769.621094	42089.851562
1768.642578	41953.105469
1767.665039	41791.261719
1766.686523	41722.515625
1765.708008	41960.500000
1764.728516	41886.714844
1763.750000	41996.406250
1762.770508	42347.242188
1761.791992	42258.347656
1760.812500	42269.945312
1759.832031	42587.867188
1758.852539	42315.707031
1757.872070	42598.347656
1756.891602	43347.625000
1755.911133	42839.632812
1754.930664	42893.726562
1753.950195	43002.972656
1752.968750	43059.511719
1751.987305	42887.902344
1751.005859	43190.066406
1750.024414	43361.796875
1749.041992	43671.253906
1748.060547	43148.968750
1747.078125	43618.617188
1746.095703	43564.769531
1745.113281	43453.363281
1744.129883	43732.445312
1743.147461	43448.378906
1742.164062	44042.578125
1741.180664	43488.417969
1740.196289	44072.359375
1739.212891	44196.003906
1738.228516	44599.574219
1737.244141	44613.085938
1736.259766	44524.136719
1735.275391	44657.570312
1734.290039	44248.921875
1733.305664	44799.406250
1732.320312	44568.164062
1731.334961	44893.691406
1730.348633	44809.769531
1729.363281	44840.664062
1728.376953	45545.140625
1727.390625	45156.824219
1726.404297	45940.750000
1725.417969	45445.296875
1724.430664	45468.539062
1723.444336	46022.628906
1722.457031	46165.347656
1721.468750	46243.234375
1720.481445	46311.121094
1719.494141	46508.472656
1718.505859	45889.097656
1717.517578	46365.250000
1716.529297	46878.539062
1715.540039	46670.019531
1714.551758	46891.964844
1713.562500	46797.937500
1712.573242	46925.265625
1711.583984	47169.394531
1710.593750	46990.839844
1709.604492	47202.542969
1708.614258	47774.449219
1707.624023	47638.109375
1706.633789	48080.531250
1705.642578	47815.050781
1704.652344	48220.015625
1703.661133	47845.386719
1702.669922	48466.089844
1701.678711	48669.687500
1700.686523	48724.355469
1699.695312	48602.902344
1698.703125	49121.269531
1697.710938	49059.281250
1696.717773	49029.539062
1695.725586	49572.281250
1694.732422	49577.128906
1693.739258	49195.523438
1692.746094	49497.648438
1691.752930	49651.078125
1690.759766	49670.750000
1689.765625	50143.378906
1688.771484	50217.382812
1687.777344	50533.828125
1686.783203	50446.925781
1685.788086	50797.816406
1684.792969	50832.054688
1683.797852	51256.886719
1682.802734	50868.343750
1681.807617	51021.156250
1680.811523	51052.835938
1679.816406	51531.613281
1678.820312	51627.386719
1677.824219	51703.363281
1676.827148	52119.992188
1675.831055	51983.566406
1674.833984	52345.671875
1673.836914	52912.410156
1672.839844	52243.082031
1671.841797	52809.605469
1670.844727	52912.339844
1669.846680	53172.800781
1668.848633	53544.070312
1667.849609	53269.554688
1666.851562	53157.753906
1665.852539	53541.105469
1664.853516	53527.796875
1663.854492	53797.652344
1662.855469	54210.175781
1661.856445	53711.863281
1660.856445	54178.367188
1659.856445	53751.605469
1658.856445	54363.031250
1657.856445	54408.578125
1656.855469	54309.035156
1655.854492	54543.855469
1654.854492	54903.917969
1653.852539	54986.164062
1652.851562	54763.734375
1651.849609	54666.664062
1650.848633	55483.171875
1649.846680	55194.476562
1648.844727	55215.195312
1647.841797	54875.125000
1646.839844	55757.167969
1645.836914	55453.917969
1644.833984	55815.492188
1643.831055	55696.269531
1642.827148	55881.109375
1641.823242	56038.910156
1640.820312	55873.140625
1639.816406	55827.496094
1638.811523	56556.003906
1637.807617	56338.785156
1636.802734	56439.992188
1635.797852	56342.843750
1634.792969	56752.429688
1633.788086	57235.261719
1632.782227	57040.128906
1631.777344	57586.308594
1630.771484	57586.843750
1629.764648	57780.554688
1628.758789	57602.570312
1627.752930	57881.746094
1626.746094	57681.812500
1625.739258	57721.402344
1624.732422	58396.113281
1623.724609	57854.257812
1622.717773	58699.589844
1621.709961	58360.519531
1620.702148	58844.152344
1619.694336	59508.171875
1618.685547	59444.839844
1617.676758	59720.601562
1616.668945	59657.242188
1615.659180	59440.289062
1614.650391	60120.562500
1613.641602	60600.687500
1612.631836	60271.566406
1611.622070	60139.925781
1610.612305	60400.515625
1609.602539	60359.003906
1608.591797	60500.125000
1607.581055	60779.945312
1606.570312	60750.542969
1605.559570	61293.000000
1604.548828	61068.863281
1603.537109	60920.218750
1602.525391	60988.074219
1601.513672	61508.144531
1600.501953	61031.316406
1599.490234	61354.292969
1598.477539	61018.617188
1597.464844	61176.257812
1596.452148	61649.593750
1595.439453	62011.023438
1594.425781	61320.988281
1593.412109	61349.765625
1592.398438	61812.960938
1591.384766	62445.816406
1590.371094	62180.792969
1589.356445	62427.652344
1588.342773	62599.234375
1587.328125	62482.222656
1586.312500	62820.976562
1585.297852	62694.265625
1584.282227	63447.167969
1583.267578	63456.039062
1582.251953	63142.769531
1581.235352	62941.015625
1580.219727	63402.710938
1579.203125	63481.765625
1578.186523	63802.792969
1577.169922	63620.410156
1576.153320	63626.789062
1575.135742	64044.320312
1574.119141	64258.558594
1573.101562	64518.640625
1572.083008	64529.648438
1571.065430	65033.640625
1570.046875	65319.972656
1569.029297	65212.433594
1568.010742	65759.437500
1566.991211	65301.722656
1565.972656	65805.023438
1564.953125	65962.960938
1563.933594	65804.703125
1562.914062	66073.554688
1561.894531	66595.570312
1560.875000	66499.976562
1559.854492	66715.460938
1558.833984	67335.851562
1557.813477	67413.687500
1556.791992	68467.429688
1555.771484	68429.351562
1554.750000	68116.687500
1553.728516	68936.023438
1552.707031	69015.843750
1551.684570	69293.023438
1550.663086	68672.351562
1549.640625	69206.953125
1548.618164	68576.929688
1547.594727	69279.687500
1546.572266	69073.140625
1545.548828	69061.429688
1544.525391	69842.976562
1543.501953	69876.757812
1542.478516	70357.460938
1541.454102	70701.023438
1540.429688	71476.773438
1539.405273	71920.812500
1538.380859	72187.007812
1537.356445	73031.578125
1536.331055	73590.210938
1535.305664	74088.625000
1534.280273	74769.148438
1533.254883	74797.023438
1532.228516	75695.328125
1531.203125	76423.039062
1530.176758	77128.882812
1529.150391	76789.570312
1528.123047	76558.218750
1527.096680	77565.414062
1526.069336	77971.046875
1525.041992	77330.125000
1524.014648	77527.351562
1522.986328	77320.000000
1521.958008	76988.289062
1520.930664	75723.617188
1519.901367	75636.343750
1518.873047	74374.851562
1517.844727	75017.156250
1516.815430	73926.031250
1515.786133	73973.031250
1514.756836	73429.773438
1513.726562	73653.632812
1512.697266	72284.195312
1511.666992	73535.085938
1510.636719	73204.843750
1509.606445	73139.710938
1508.575195	72618.742188
1507.544922	72611.015625
1506.513672	73101.890625
1505.481445	72929.476562
1504.450195	72876.367188
1503.418945	72842.351562
1502.386719	72748.750000
1501.354492	72795.789062
1500.322266	73090.609375
1499.289062	73787.914062
1498.256836	73439.328125
1497.223633	73259.953125
1496.190430	74180.562500
1495.156250	73915.414062
1494.123047	74385.726562
1493.088867	74527.492188
1492.054688	74783.382812
1491.020508	74991.593750
1489.986328	75378.054688
1488.951172	75212.804688
1487.916016	74912.140625
1486.880859	75657.203125
1485.845703	75853.117188
1484.810547	75953.937500
1483.774414	75914.585938
1482.738281	76153.054688
1481.702148	76602.710938
1480.666016	76287.914062
1479.628906	76191.554688
1478.591797	76546.007812
1477.554688	77061.609375
1476.517578	76718.507812
1475.480469	77167.460938
1474.442383	77106.554688
1473.404297	77493.617188
1472.366211	77385.273438
1471.328125	77646.546875
1470.289062	77995.343750
1469.250000	78514.500000
1468.210938	78744.585938
1467.171875	78565.054688
1466.132812	78532.335938
1465.092773	79155.039062
1464.052734	79510.171875
1463.012695	79888.796875
1461.972656	80359.492188
1460.932617	80257.843750
1459.891602	80470.609375
1458.850586	81108.664062
1457.809570	80832.070312
1456.768555	81455.609375
1455.726562	81833.257812
1454.684570	82116.296875
1453.642578	82521.976562
1452.600586	82429.460938
1451.557617	83545.203125
1450.515625	83435.984375
1449.472656	83999.085938
1448.429688	84484.117188
1447.385742	83844.234375
1446.342773	84435.171875
1445.298828	85492.539062
1444.254883	85545.617188
1443.210938	85676.414062
1442.166016	86381.890625
1441.122070	86886.890625
1440.077148	86843.085938
1439.032227	86914.640625
1437.986328	87727.523438
1436.941406	87669.437500
1435.895508	87985.429688
1434.849609	88425.937500
1433.803711	88715.765625
1432.756836	88692.765625
1431.710938	89172.812500
1430.664062	88898.257812
1429.617188	89171.273438
1428.569336	89319.671875
1427.522461	89644.156250
1426.474609	89895.703125
1425.426758	90365.476562
1424.378906	90375.000000
1423.331055	90905.484375
1422.282227	91226.937500
1421.233398	91437.992188
1420.184570	91517.617188
1419.135742	91904.382812
1418.085938	92199.546875
1417.036133	93024.289062
1415.986328	93021.492188
1414.936523	92861.710938
1413.886719	92858.929688
1412.835938	93179.328125
1411.785156	93544.078125
1410.734375	94521.992188
1409.683594	94378.421875
1408.631836	94101.531250
1407.581055	94666.960938
1406.529297	94869.601562
1405.476562	95509.460938
1404.424805	95529.468750
1403.372070	95397.523438
1402.319336	95567.109375
1401.266602	96598.820312
1400.213867	96352.250000
1399.161133	96792.445312
1398.107422	97022.289062
1397.053711	97716.632812
1396.000000	97378.984375
1394.945312	97823.250000
1393.890625	98090.000000
1392.836914	98447.609375
1391.782227	99231.867188
1390.726562	98698.351562
1389.671875	98570.695312
1388.616211	98529.328125
1387.560547	99275.609375
1386.504883	98777.453125
1385.448242	99057.500000
1384.392578	99558.656250
1383.335938	99465.875000
1382.279297	99338.203125
1381.221680	100341.695312
1380.165039	99678.695312
1379.107422	99299.781250
1378.049805	99951.421875
1376.992188	99956.304688
1375.933594	100007.679688
1374.875977	100059.031250
1373.817383	99887.242188
1372.757812	99492.453125
1371.699219	99653.046875
1370.640625	100343.109375
1369.581055	100050.632812
1368.521484	99679.335938
1367.460938	99651.718750
1366.401367	99074.101562
1365.340820	99030.367188
1364.280273	99645.437500
1363.219727	99295.453125
1362.159180	99293.414062
1361.097656	99249.648438
1360.036133	99110.859375
1358.974609	98476.218750
1357.913086	98736.132812
1356.851562	98662.382812
1355.789062	98116.218750
1354.726562	98176.906250
1353.664062	97323.171875
1352.600586	96580.882812
1351.538086	96891.734375
1350.474609	96563.937500
1349.411133	96451.382812
1348.346680	96463.742188
1347.283203	95213.718750
1346.218750	94831.046875
1345.154297	94485.500000
1344.089844	94003.765625
1343.024414	93265.812500
1341.959961	93255.679688
1340.894531	92732.921875
1339.829102	91799.437500
1338.762695	91044.062500
1337.697266	91302.078125
1336.630859	91218.507812
1335.564453	90698.992188
1334.498047	90244.265625
1333.430664	90326.968750
1332.363281	89865.585938
1331.296875	89694.789062
1330.228516	89630.062500
1329.161133	88883.406250
1328.092773	89086.062500
1327.025391	88431.937500
1325.956055	87471.859375
1324.887695	85909.054688
1323.819336	84844.023438
1322.750000	82987.882812
1321.680664	82561.132812
1320.611328	81858.546875
1319.541016	80894.101562
1318.471680	79955.335938
1317.401367	78649.187500
1316.331055	78115.742188
1315.259766	77598.601562
1314.189453	77295.312500
1313.118164	76539.687500
1312.046875	75894.601562
1310.974609	75300.273438
1309.903320	74889.820312
1308.831055	74075.640625
1307.758789	73709.195312
1306.686523	72682.273438
1305.614258	72646.500000
1304.541016	71590.406250
1303.467773	71165.156250
1302.394531	70687.367188
1301.321289	70157.070312
1300.247070	69171.085938
1299.172852	69175.007812
1298.098633	68352.218750
1297.024414	67779.335938
1295.950195	67588.953125
1294.875000	66783.023438
1293.799805	66494.531250
1292.724609	66364.000000
1291.649414	67031.742188
1290.573242	65782.968750
1289.497070	66164.765625
1288.420898	65360.109375
1287.344727	65079.109375
1286.267578	64649.710938
1285.190430	63960.082031
1284.113281	63736.632812
1283.036133	62714.105469
1281.958984	62214.773438
1280.880859	61916.496094
1279.802734	61698.207031
1278.724609	61363.652344
1277.646484	61220.835938
1276.567383	60633.378906
1275.488281	60686.847656
1274.409180	59896.863281
1273.330078	60166.960938
1272.250000	60029.082031
1271.169922	59932.261719
1270.089844	59575.828125
1269.009766	60018.816406
1267.929688	59284.578125
1266.848633	59240.332031
1265.767578	58729.578125
1264.686523	58924.359375
1263.605469	58791.488281
1262.523438	59031.652344
1261.441406	58162.089844
1260.359375	57604.335938
1259.277344	57485.472656
1258.194336	57393.929688
1257.111328	57157.015625
1256.028320	56983.796875
1254.945312	56996.867188
1253.862305	56528.582031
1252.778320	56632.535156
1251.694336	56534.453125
1250.610352	56445.484375
1249.526367	56177.328125
1248.441406	56421.878906
1247.356445	56026.847656
1246.271484	56232.777344
1245.186523	56032.878906
1244.100586	55744.679688
1243.014648	55887.085938
1241.928711	55818.761719
1240.842773	55954.296875
1239.756836	56187.132812
1238.669922	55681.855469
1237.583008	55787.898438
1236.496094	56016.089844
1235.408203	56042.824219
1234.321289	55865.968750
1233.233398	56107.558594
1232.145508	56620.367188
1231.056641	56472.878906
1229.968750	56876.906250
1228.879883	56636.777344
1227.791016	56638.468750
1226.702148	56416.550781
1225.612305	56239.886719
1224.522461	55977.496094
1223.432617	55769.390625
1222.342773	55344.718750
1221.252930	55121.031250
1220.162109	54791.410156
1219.071289	55307.675781
1217.980469	54416.683594
1216.888672	54312.847656
1215.797852	54740.976562
1214.706055	54558.238281
1213.614258	53458.609375
1212.522461	54037.558594
1211.429688	53697.429688
1210.336914	53602.859375
1209.244141	53618.628906
1208.151367	52965.957031
1207.057617	53296.867188
1205.964844	52484.804688
1204.871094	53128.308594
1203.776367	52608.949219
1202.682617	52402.312500
1201.587891	52928.535156
1200.493164	52371.328125
1199.398438	52924.292969
1198.303711	52461.664062
1197.208008	52459.632812
1196.112305	52938.121094
1195.016602	52675.574219
1193.920898	52628.601562
1192.824219	52969.855469
1191.728516	53367.054688
1190.631836	53387.250000
1189.534180	53611.507812
1188.437500	52763.933594
1187.339844	53393.960938
1186.242188	52963.640625
1185.144531	52939.070312
1184.045898	52524.699219
1182.948242	52585.335938
1181.849609	51862.183594
1180.750977	52016.957031
1179.651367	51289.750000
1178.552734	50983.566406
1177.453125	51019.832031
1176.353516	50854.753906
1175.252930	50589.101562
1174.153320	50086.542969
1173.052734	50071.535156
1171.952148	49710.101562
1170.851562	49482.886719
1169.750000	49682.484375
1168.648438	49225.300781
1167.546875	49677.214844
1166.445312	49604.246094
1165.343750	50055.882812
1164.241211	50451.531250
1163.138672	51384.753906
1162.036133	51782.179688
1160.932617	51960.859375
1159.830078	52284.406250
1158.726562	52436.148438
1157.623047	52652.460938
1156.518555	52443.035156
1155.415039	51736.851562
1154.310547	51275.988281
1153.206055	50888.812500
1152.100586	50697.734375
1150.996094	50150.554688
1149.890625	49300.910156
1148.785156	49092.480469
1147.679688	49351.328125
1146.573242	49289.769531
1145.466797	49466.179688
1144.360352	49291.226562
1143.253906	48689.554688
1142.147461	48203.699219
1141.040039	47991.339844
1139.932617	47683.546875
1138.825195	46431.960938
1137.716797	46173.472656
1136.609375	46454.562500
1135.500977	45789.984375
1134.391602	46044.402344
1133.283203	45533.273438
1132.173828	45510.359375
1131.065430	45600.554688
1129.955078	45630.843750
1128.845703	45060.371094
1127.736328	45013.183594
1126.625977	44977.093750
1125.515625	44619.785156
1124.404297	44964.753906
1123.293945	44957.472656
1122.182617	44611.460938
1121.071289	45035.886719
1119.959961	44422.218750
1118.847656	44720.382812
1117.735352	44624.667969
1116.623047	44911.601562
1115.510742	44935.281250
1114.398438	44470.386719
1113.285156	44710.746094
1112.171875	44011.851562
1111.058594	44457.667969
1109.944336	44309.117188
1108.831055	43584.242188
1107.716797	44093.886719
1106.602539	43707.097656
1105.487305	43357.984375
1104.373047	43075.210938
1103.257812	43024.191406
1102.142578	42862.910156
1101.026367	42822.972656
1099.911133	42869.035156
1098.794922	42747.554688
1097.678711	42372.699219
1096.561523	42275.605469
1095.445312	42222.609375
1094.328125	41841.484375
1093.210938	41733.550781
1092.092773	41715.914062
1090.975586	41799.523438
1089.857422	41828.085938
1088.739258	41542.035156
1087.621094	41454.058594
1086.501953	41370.515625
1085.383789	41166.085938
1084.264648	41025.480469
1083.144531	41223.375000
1082.025391	41300.332031
1080.905273	41014.800781
1079.785156	40786.488281
1078.665039	40863.484375
1077.543945	41010.695312
1076.423828	40826.421875
1075.302734	40773.882812
1074.181641	40861.773438
1073.059570	40298.171875
1071.937500	40796.210938
1070.816406	40559.542969
1069.693359	40436.960938
1068.571289	40198.269531
1067.448242	40229.187500
1066.325195	40562.402344
1065.202148	39988.730469
1064.079102	40021.855469
1062.955078	39798.820312
1061.831055	40105.566406
1060.707031	39514.960938
1059.583008	39823.820312
1058.458008	39732.250000
1057.333008	39395.777344
1056.208008	39302.144531
1055.083008	39383.433594
1053.957031	39871.199219
1052.832031	39755.664062
1051.706055	39801.843750
1050.579102	39948.472656
1049.453125	40223.871094
1048.326172	39656.421875
1047.199219	39582.519531
1046.071289	39242.402344
1044.944336	39484.980469
1043.816406	39022.867188
1042.688477	38909.894531
1041.560547	38722.832031
1040.431641	39124.445312
1039.303711	38767.406250
1038.174805	38837.617188
1037.044922	38790.152344
1035.916016	38376.773438
1034.786133	38529.765625
1033.656250	38190.636719
1032.526367	38143.339844
1031.395508	38326.746094
1030.265625	38307.718750
1029.134766	38121.191406
1028.002930	37982.593750
1026.872070	37787.511719
1025.740234	38246.882812
1024.608398	37914.894531
1023.476562	38078.500000
1022.344727	38446.261719
1021.211914	38112.261719
1020.079102	38171.476562
1018.946289	37709.570312
1017.812500	37981.574219
1016.679688	38312.054688
1015.545898	38102.105469
1014.411133	38284.902344
1013.277344	38738.726562
1012.142578	38613.382812
1011.007812	38717.898438
1009.873047	38724.828125
1008.738281	39186.832031
1007.602539	39215.320312
1006.466797	39811.316406
1005.331055	39371.871094
1004.195312	39727.238281
1003.058594	39342.109375
1001.921875	38788.328125
1000.785156	38931.531250
999.647461	39011.933594
998.510742	38919.265625
997.373047	38990.984375
996.235352	39222.652344
995.096680	39385.050781
993.958984	39128.132812
992.820312	39152.203125
991.681641	39046.648438
990.541992	39630.074219
989.403320	39308.535156
988.263672	39123.136719
987.123047	38998.242188
985.983398	39026.609375
984.842773	38578.179688
983.703125	38319.746094
982.561523	38428.019531
981.420898	38344.359375
980.279297	37993.445312
979.138672	38082.316406
977.996094	37949.222656
976.854492	38022.980469
975.711914	37846.875000
974.569336	37722.519531
973.426758	37759.675781
972.284180	37603.101562
971.140625	37620.894531
969.997070	37331.027344
968.853516	37374.679688
967.709961	37657.007812
966.565430	37653.265625
965.420898	37640.921875
964.276367	37834.894531
963.131836	37962.175781
961.986328	37485.761719
960.840820	37761.250000
959.695312	37265.750000
958.549805	37639.917969
957.403320	37535.285156
956.256836	37419.968750
955.110352	37560.000000
953.963867	37500.492188
952.816406	36804.085938
951.668945	36879.832031
950.521484	37127.031250
949.374023	37466.277344
948.225586	37171.144531
947.077148	37362.421875
945.928711	37105.984375
944.780273	37237.230469
943.630859	37287.062500
942.481445	37193.468750
941.332031	37209.046875
940.181641	36993.554688
939.032227	37227.343750
937.881836	37296.363281
936.731445	37183.613281
935.580078	37184.203125
934.429688	37033.050781
933.278320	37525.113281
932.125977	37102.640625
930.974609	36919.558594
929.822266	37471.109375
928.669922	38180.406250
927.517578	37704.785156
926.365234	38048.816406
925.211914	37880.648438
924.058594	38009.046875
922.905273	38401.832031
921.750977	38510.867188
920.597656	38590.011719
919.443359	38639.285156
918.289062	38428.578125
917.133789	38756.929688
915.978516	38303.476562
914.823242	38312.296875
913.667969	38186.988281
912.512695	38236.269531
911.356445	37823.738281
910.200195	37602.867188
909.043945	37707.539062
907.886719	37688.816406
906.729492	37534.019531
905.572266	37468.570312
904.415039	37700.687500
903.257812	37839.210938
902.099609	37085.429688
900.941406	37650.929688
899.783203	37572.773438
898.624023	37951.093750
897.464844	37197.925781
896.305664	37308.777344
895.146484	37425.941406
893.986328	37610.933594
892.826172	37346.242188
891.666016	37493.003906
890.505859	37215.730469
889.345703	37303.105469
888.184570	37178.550781
887.023438	36679.078125
885.861328	37196.460938
884.700195	37118.585938
883.538086	37148.718750
882.375977	37115.332031
881.212891	37016.355469
880.050781	36754.511719
878.887695	36983.519531
877.724609	36778.886719
876.560547	37248.824219
875.397461	36932.183594
874.233398	37019.343750
873.069336	37212.117188
871.904297	37341.429688
870.740234	37073.605469
869.575195	37027.621094
868.409180	36808.535156
867.244141	37296.632812
866.078125	36967.843750
864.912109	36907.144531
863.746094	37063.730469
862.580078	36912.343750
861.413086	37224.882812
860.246094	36805.808594
859.079102	36700.933594
857.911133	36792.062500
856.743164	36961.097656
855.575195	37146.906250
854.407227	36785.140625
853.239258	37101.429688
852.070312	36830.332031
850.901367	36923.406250
849.731445	37241.558594
848.562500	37504.882812
847.392578	36510.484375
846.222656	37713.691406
845.052734	37404.960938
843.881836	36953.445312
842.710938	37088.363281
841.540039	37248.425781
840.369141	37318.105469
839.197266	37436.046875
838.025391	37287.312500
836.853516	37426.199219
835.681641	37199.882812
834.508789	37164.582031
833.335938	37456.519531
832.163086	37651.859375
830.989258	37568.253906
829.816406	37681.726562
828.642578	36996.660156
827.467773	37525.078125
826.293945	37418.519531
825.119141	37948.703125
823.944336	37100.832031
822.769531	37691.566406
821.593750	37287.839844
820.418945	37221.195312
819.243164	37056.242188
818.066406	37399.644531
816.890625	38140.234375
815.713867	37460.851562
814.537109	37323.156250
813.360352	37331.808594
812.182617	37434.484375
811.004883	37317.765625
809.827148	37656.398438
808.649414	37779.808594
807.470703	37963.707031
806.291992	37462.921875
805.113281	37936.859375
803.933594	37930.742188
802.754883	37901.683594
801.575195	37995.671875
800.395508	37837.335938
799.214844	38077.207031
798.034180	38041.878906
796.853516	37998.226562
795.672852	37962.925781
794.492188	37840.164062
793.310547	37875.703125
792.128906	37834.199219
790.946289	38171.511719
789.764648	37738.750000
788.582031	38329.742188
787.399414	38061.449219
786.216797	37972.105469
785.033203	38082.390625
783.849609	37808.082031
782.666016	38269.562500
781.482422	38194.785156
780.297852	38099.269531
779.113281	37968.484375
777.928711	37806.605469
776.743164	38161.703125
775.558594	38468.906250
774.373047	38452.269531
773.186523	38300.789062
772.000977	38304.933594
770.814453	38211.609375
769.627930	38333.941406
768.441406	38609.601562
767.253906	38462.382812
766.066406	38371.171875
764.878906	38874.492188
763.691406	38520.207031
762.502930	39031.558594
761.314453	39391.566406
760.125977	39678.976562
758.937500	40109.035156
757.748047	39814.847656
756.558594	40286.050781
755.369141	39861.675781
754.179688	40123.851562
752.989258	39991.128906
751.798828	40063.042969
750.608398	40341.523438
749.416992	40398.867188
748.225586	41036.484375
747.034180	41044.093750
745.842773	41037.242188
744.650391	40640.335938
743.458984	40130.117188
742.265625	40243.109375
741.073242	39945.625000
739.879883	39338.964844
738.686523	39344.851562
737.493164	39043.625000
736.299805	39008.351562
735.105469	39150.269531
733.911133	38766.882812
732.716797	39005.574219
731.521484	38912.679688
730.327148	38778.656250
729.131836	38702.312500
727.935547	38922.285156
726.740234	38716.339844
725.543945	39055.492188
724.347656	38664.546875
723.150391	39202.964844
721.954102	39077.285156
720.756836	39013.300781
719.559570	38980.160156
718.361328	38883.359375
717.164062	38848.203125
715.965820	38987.566406
714.766602	39048.871094
713.568359	38716.128906
712.369141	39292.441406
711.169922	38766.964844
709.970703	38731.863281
708.770508	38811.597656
707.570312	39114.734375
706.370117	39296.820312
705.169922	38948.121094
703.968750	39148.589844
702.767578	39604.992188
701.566406	39209.347656
700.365234	39403.484375
699.163086	39654.843750
697.960938	39277.855469
696.758789	39140.402344
695.555664	39248.464844
694.352539	39141.746094
693.149414	39212.953125
691.946289	39153.300781
690.742188	39696.558594
689.539062	39418.195312
688.333984	39319.718750
687.129883	39558.265625
685.924805	39700.738281
684.719727	39563.464844
683.514648	39663.007812
682.309570	39417.652344
681.103516	39747.710938
679.897461	39614.617188
678.691406	39728.324219
677.484375	39662.570312
676.277344	39411.347656
675.070312	39290.660156
673.863281	39872.945312
672.655273	39668.687500
671.447266	40175.277344
670.239258	39635.078125
669.031250	39317.000000
667.822266	39359.292969
666.613281	39857.355469
665.404297	39421.437500
664.194336	39695.539062
662.984375	39888.175781
661.774414	39907.921875
660.564453	40092.296875
659.353516	39668.984375
658.142578	39946.777344
656.931641	40017.265625
655.720703	40118.179688
654.508789	39920.585938
653.296875	40076.281250
652.084961	39959.957031
650.872070	39898.464844
649.660156	40108.824219
648.447266	40140.613281
647.233398	40085.195312
646.020508	40344.023438
644.806641	39998.750000
643.592773	40044.710938
642.377930	40439.101562
641.164062	40563.933594
639.949219	40522.656250
638.733398	40210.101562
637.518555	40749.839844
636.302734	40767.226562
635.086914	40695.582031
633.871094	40419.660156
632.654297	40829.437500
631.437500	40891.265625
630.220703	40930.824219
629.003906	40778.363281
627.786133	40658.300781
626.568359	40970.597656
625.350586	40557.679688
624.131836	40839.566406
622.914062	41062.781250
621.695312	40934.699219
620.475586	41385.816406
619.256836	41025.703125
618.037109	41228.500000
616.817383	41116.613281
615.596680	41442.281250
614.375977	41507.777344
613.155273	41299.164062
611.934570	41314.285156
610.713867	41569.109375
609.492188	41805.695312
608.270508	41844.847656
607.048828	41648.453125
605.826172	41643.339844
604.603516	41764.992188
603.380859	41838.308594
602.157227	41879.410156
600.934570	41363.480469
